#Acq. time (s)=	10
#Accumulations=	5
#Range=	Off
#Autofocus=	Off
#AutoExposure=	Off
#Spike filter=	Multiple accum.
#Delay time (s)=	0
#Binning=	1
#Readout mode=	Signal
#DeNoise=	Off
#ICS correction=	Off
#Dark correction=	Off
#Inst. Process=	Off
#Detector Gain=	Best Dynamic Range
#Detector ADC=	45 kHz       
#Detector temperature (°C)=	-60.1
#Instrument=	LabRAM HR Odyssey
#Detector=	Syncerity OE
#Objective=	x100_VIS
#Grating=	1800 (450-850nm)
#ND Filter=	1%
#Laser=	532nm_Edge
#Spectro (cm-¹)=	300.006
#Hole=	100.021
#Range=	Visible
#E-Cal_Neon=	0
#StageXY=	200x100mm Heavy
#StageZ=	Z motor
#X (µm)=	0
#Y (µm)=	0
#Z (µm)=	-988.9
#Spectral res.(cm-¹)=	2.2
#Full time(s)=	59
#AC=	Calibrated 2026-08-05 15:16
#Project=	A
#Sample=	B
#Site=	C
#Title=	_15_37_00
#Remark=	
#Date=	05.08.2026 15:37
#Acquired=	05.08.2026 15:37:13
#Peaks:Edit=	05.08.2026 15:38:18
#Peaks:Edit=	05.08.2026 15:39:16
#AxisType[0]=Intens
#AxisUnit[0]=Cnt
#AxisType[1]=Spectr
#AxisUnit[1]=1/cm
36.5878	28
37.1156	21
37.6413	30.5
38.1691	33.5
38.6947	33
39.2203	31
39.748	39.5
40.2736	37.5
40.8012	37.5
41.3267	41
41.8543	42
42.3797	39.5
42.9051	45
43.4326	48.5
43.9579	45
44.4853	46
45.0106	50.5
45.5358	52.5
46.0632	54.5
46.5883	56.5
47.1156	58.5
47.6407	62.5
48.1658	55
48.693	64
49.2181	63.5
49.7431	64.5
50.2702	68
50.7951	73
51.32	75.5
51.847	81.5
52.3719	78
52.8967	83.5
53.4237	86
53.9484	91
54.4732	91.5
55	98.5
55.5247	110
56.0493	108.5
56.5761	122.5
57.1007	119
57.6252	138
58.1498	134
58.6764	150
59.2009	161.5
59.7253	166.5
60.2497	176.5
60.7762	188.5
61.3006	196
61.8249	196
62.3492	207.5
62.8756	218.5
63.3998	247.5
63.9241	249.5
64.4482	258.5
64.9724	267.5
65.4986	280
66.0227	290.5
66.5468	307.5
67.0708	310
67.5948	313
68.1188	326.5
68.6449	325
69.1688	360
69.6926	367
70.2165	365
70.7403	372
71.2641	413.5
71.7879	413
72.3138	403
72.8375	415
73.3611	419.5
73.8848	446
74.4084	454.5
74.932	462.5
75.4556	456.5
75.9791	472.5
76.5026	486.5
77.0282	483
77.5516	472.5
78.075	512.5
78.5984	498
79.1218	493.5
79.6451	508
80.1684	521.5
80.6917	516
81.2149	530
81.7381	528
82.2613	530
82.7844	560
83.3076	540
83.8307	552.5
84.3537	540.5
84.8767	563
85.3997	569
85.9227	573
86.4457	571.5
86.9686	563
87.4915	574
88.0143	580.5
88.5372	606.5
89.06	590.5
89.5827	610.5
90.1055	602.5
90.6282	607.5
91.1509	652.5
91.6735	697
92.1961	717.5
92.7187	754.5
93.2413	789.5
93.7617	839
94.2842	891
94.8067	901.5
95.3291	970
95.8515	996
96.3739	1004
96.8963	993.5
97.4186	950
97.9409	934.5
98.4611	885
98.9833	850
99.5055	818.5
100.028	804.5
100.55	787
101.072	780.5
101.594	751.5
102.114	745
102.636	739.5
103.158	749
103.68	745.5
104.202	737.5
104.722	725.5
105.244	739.5
105.766	750.5
106.287	756
106.809	772.5
107.329	755
107.851	778.5
108.372	784
108.894	793
109.414	836
109.935	836
110.457	858
110.978	925
111.498	963
112.019	990
112.541	1046
113.062	1060.5
113.582	1099
114.103	1099.5
114.624	1145
115.144	1151.5
115.665	1181.5
116.186	1186
116.707	1203
117.226	1214
117.748	1255.5
118.269	1255
118.788	1262.5
119.309	1280
119.83	1274
120.349	1217
120.87	1123.5
121.391	1039
121.91	972.5
122.431	964.5
122.949	939.5
123.47	906
123.991	906
124.51	883.5
125.031	907.5
125.549	895
126.07	895
126.591	906
127.109	925.5
127.63	933.5
128.148	935
128.669	918.5
129.187	948
129.708	920
130.228	924
130.747	920
131.267	910
131.786	878.5
132.306	883.5
132.824	893.5
133.344	892
133.863	934.5
134.383	956
134.901	1020
135.421	1109
135.939	1255
136.459	1396.5
136.977	1498
137.498	1590.5
138.016	1550
138.536	1513
139.053	1382.5
139.573	1323
140.091	1196.5
140.609	1142
141.129	1045
141.647	1032
142.166	975
142.684	938
143.204	932
143.722	910.5
144.239	881
144.759	830.5
145.276	843
145.796	843
146.314	817
146.831	817.5
147.35	785
147.868	815
148.385	783.5
148.905	796.5
149.422	772
149.941	759
150.459	755
150.976	746
151.495	739
152.012	727
152.53	705
153.047	701.5
153.566	706
154.083	685
154.6	691
155.119	696
155.636	681.5
156.153	666.5
156.672	637.5
157.189	623.5
157.706	608.5
158.222	590
158.741	592
159.258	595
159.775	612
160.292	589
160.81	587
161.327	584
161.844	584
162.36	574.5
162.877	586.5
163.395	577
163.912	572
164.428	566
164.945	546
165.461	547
165.98	564
166.496	544.5
167.012	554
167.529	548
168.045	555
168.563	526.5
169.08	532.5
169.596	543.5
170.112	544
170.628	537
171.144	524
171.66	535.5
172.176	547.5
172.694	522.5
173.21	536
173.726	532
174.242	529
174.758	524.5
175.274	551.5
175.79	552
176.306	533.5
176.822	525.5
177.337	523
177.853	518.5
178.369	514.5
178.887	516.5
179.402	519.5
179.918	502.5
180.433	505.5
180.949	530
181.464	527.5
181.98	519
182.495	526.5
183.011	513
183.526	520.5
184.042	514
184.557	521
185.072	538
185.588	530.5
186.103	520.5
186.618	515.5
187.133	533
187.649	523
188.164	524
188.677	534.5
189.192	535
189.707	537
190.222	537
190.737	534
191.252	531
191.767	538.5
192.282	542.5
192.797	528
193.312	558
193.827	553
194.341	531
194.854	562
195.369	561
195.884	573
196.398	563
196.913	577.5
197.428	577.5
197.942	584
198.455	611
198.969	582
199.484	595.5
199.998	594.5
200.513	618
201.027	613
201.54	609
202.054	620
202.568	648.5
203.083	642.5
203.597	634
204.109	670
204.623	668
205.138	737.5
205.652	848
206.166	985.5
206.678	1112
207.192	1118
207.706	1153
208.22	1179
208.732	1197
209.246	1169
209.76	1192.5
210.272	1182
210.786	1167
211.3	1181
211.813	1161.5
212.325	1138
212.839	1176.5
213.353	1170.5
213.864	1169
214.378	1186.5
214.892	1232.5
215.403	1259.5
215.917	1300.5
216.431	1334.5
216.942	1356.5
217.456	1435.5
217.969	1450.5
218.48	1557
218.994	1606
219.507	1658
220.019	1647.5
220.532	1601.5
221.043	1551
221.557	1478.5
222.07	1467
222.581	1462.5
223.094	1400.5
223.605	1393
224.118	1336.5
224.632	1348
225.143	1379.5
225.656	1348.5
226.167	1309.5
226.68	1341
227.191	1330
227.704	1370.5
228.214	1401.5
228.727	1395.5
229.238	1382.5
229.751	1377.5
230.262	1388.5
230.774	1408.5
231.285	1450
231.798	1507
232.308	1561.5
232.821	1586
233.332	1626
233.844	1686
234.355	1756
234.867	1828
235.378	1921
235.89	2064
236.401	2213
236.913	2338.5
237.424	2509
237.934	2645
238.446	2734.5
238.957	2866.5
239.469	2885.5
239.979	2922
240.491	3036
241.001	3185
241.512	3225.5
242.024	3314
242.534	3418
243.046	3515
243.556	3700.5
244.066	3894
244.578	4011.5
245.088	4257.5
245.598	4566
246.11	4968.5
246.62	5519
247.129	6407
247.641	7967
248.151	10859
248.661	15798
249.172	23506
249.682	38938.5
250.192	64918
250.703	64918
251.213	57950.5
251.723	27637.5
252.232	14622
252.744	9653
253.253	7158
253.763	5583
254.272	5219.5
254.783	5474
255.293	6103
255.802	6770.5
256.311	7267.5
256.823	7509.5
257.332	7541.5
257.841	7641
258.35	7759
258.86	7923.5
259.371	7840
259.88	6999
260.389	5858
260.898	5127
261.407	4823.5
261.918	4733
262.427	4565.5
262.936	4096.5
263.445	3262
263.954	2435.5
264.463	1974
264.974	1804.5
265.482	1708
265.991	1618
266.5	1556.5
267.009	1506
267.517	1480
268.026	1443.5
268.534	1392
269.043	1316.5
269.554	1294
270.062	1229.5
270.571	1196
271.079	1146.5
271.588	1133
272.096	1121
272.605	1091
273.113	1070.5
273.621	1064
274.13	1063.5
274.638	1041.5
275.146	1061
275.654	1030
276.163	1030
276.671	1042
277.179	1027.5
277.687	1038.5
278.195	1034.5
278.703	1025
279.211	1012
279.719	1010
280.227	1004.5
280.735	1009
281.243	996.5
281.751	1000
282.259	1009.5
282.767	1009
283.275	1002.5
283.782	990.5
284.29	1017
284.798	980
285.305	967
285.813	995
286.321	970
286.826	972
287.334	938.5
287.841	910.5
288.349	884
288.857	841
289.364	785.5
289.871	734.5
290.379	681.5
290.886	653
291.392	643
291.899	655.5
292.406	632.5
292.914	642.5
293.421	630.5
293.928	631
294.433	628.5
294.94	610
295.447	612.5
295.955	621.5
296.462	605
296.967	621
297.474	625.5
297.981	598.5
298.488	615.5
298.995	602
299.499	608
300.006	586
300.513	607.5
301.02	589.5
301.525	604.5
302.032	619
302.538	608
303.045	606.5
303.55	619.5
304.056	618
304.563	654.5
305.068	667.5
305.574	697
306.081	707
306.585	781.5
307.092	919
307.598	1130
308.105	1662
308.609	2695
309.115	3444.5
309.622	2672
310.126	1609.5
310.632	1091.5
311.136	912
311.643	809.5
312.149	757.5
312.653	729
313.159	719
313.665	694
314.169	683
314.675	658
315.179	670.5
315.686	668
316.192	667
316.695	633
317.201	652.5
317.705	641.5
318.211	656
318.715	639.5
319.221	633
319.727	635
320.23	630
320.736	650.5
321.24	643.5
321.745	648.5
322.249	631
322.755	640.5
323.258	667
323.764	639.5
324.267	656
324.773	665
325.276	655.5
325.782	681.5
326.285	671
326.79	666.5
327.294	700
327.797	693
328.302	698
328.806	710
329.311	723
329.814	739
330.319	763
330.823	768.5
331.328	773
331.831	774.5
332.334	774
332.839	770
333.342	755
333.847	731
334.35	777.5
334.853	756
335.358	802
335.861	797
336.363	808
336.868	870
337.371	901.5
337.874	914
338.379	939
338.881	941
339.384	955.5
339.889	954
340.391	939
340.894	938.5
341.399	946.5
341.901	942
342.404	932
342.908	961
343.411	981.5
343.913	952
344.415	971.5
344.92	961.5
345.422	960
345.924	965
346.427	966
346.931	984.5
347.433	989.5
347.935	1002.5
348.438	1011.5
348.942	1008
349.444	1000
349.946	1006.5
350.448	1023
350.952	1011
351.454	995
351.956	1003
352.458	1018
352.96	1001.5
353.462	994
353.966	980.5
354.468	957.5
354.97	973
355.471	958.5
355.973	970
356.475	954
356.977	944
357.48	985
357.982	1039
358.484	1124.5
358.985	1172
359.487	1192.5
359.988	1216.5
360.49	1168
360.991	1138.5
361.493	1042
361.994	992
362.498	956
362.999	948
363.5	925
364.002	908
364.503	875.5
365.004	863
365.505	899.5
366.007	877
366.508	897
367.009	892
367.51	921
368.011	934
368.512	940.5
369.013	968
369.514	994
370.015	1016
370.516	1077.5
371.017	1116
371.518	1201.5
372.019	1387
372.52	1613.5
373.021	1884.5
373.522	2004.5
374.022	2164.5
374.523	2099
375.024	1810
375.522	1546.5
376.023	1325
376.524	1190.5
377.024	1089
377.525	1045.5
378.026	959.5
378.526	969
379.027	902
379.527	896.5
380.027	872
380.526	864
381.026	859.5
381.527	856
382.027	851.5
382.527	848
383.028	881.5
383.526	880
384.026	876
384.526	879.5
385.026	894
385.526	927
386.027	944.5
386.525	967.5
387.025	975
387.525	1001
388.025	1001
388.525	1034
389.023	1070.5
389.523	1094.5
390.022	1105.5
390.522	1164.5
391.02	1263
391.52	1293
392.02	1407.5
392.52	1459
393.017	1483.5
393.517	1556.5
394.017	1599.5
394.514	1630
395.014	1643.5
395.513	1710.5
396.013	1699.5
396.511	1715
397.01	1652.5
397.51	1577
398.007	1456
398.506	1407
399.006	1305
399.503	1206
400.003	1108
400.5	984.5
400.999	901
401.498	810
401.996	758
402.495	691.5
402.994	673.5
403.491	655.5
403.99	634
404.487	613.5
404.986	607
405.485	596
405.982	603.5
406.481	579.5
406.978	592.5
407.477	567
407.974	571.5
408.473	578
408.972	562
409.469	557
409.968	564
410.464	553
410.963	549
411.46	560
411.959	548
412.455	541.5
412.954	525.5
413.45	540
413.949	542.5
414.445	538
414.944	548.5
415.441	538.5
415.939	533.5
416.435	536
416.932	545.5
417.43	519
417.927	540.5
418.425	518
418.921	511
419.42	515.5
419.916	531.5
420.412	517
420.91	525
421.406	514.5
421.904	536.5
422.401	507.5
422.897	532
423.395	506
423.891	531
424.389	527.5
424.885	525
425.381	539.5
425.879	516.5
426.374	510
426.87	514
427.368	522
427.864	518
428.36	541.5
428.858	485
429.353	526
429.849	514.5
430.347	531.5
430.842	541.5
431.338	539
431.834	525.5
432.331	523.5
432.827	527
433.322	537
433.82	538.5
434.315	535
434.811	527.5
435.306	528.5
435.803	553
436.299	547
436.794	559
437.289	537.5
437.785	548
438.282	556.5
438.777	563.5
439.272	553
439.767	550.5
440.263	577.5
440.76	583.5
441.255	554.5
441.75	555
442.245	572
442.74	576.5
443.235	563
443.732	578
444.227	579
444.722	573.5
445.216	573.5
445.711	572.5
446.206	569.5
446.701	578
447.196	588
447.69	580.5
448.187	576
448.682	580.5
449.176	583
449.671	574
450.166	576
450.66	564.5
451.155	569.5
451.649	588
452.144	566
452.638	573.5
453.133	585
453.627	573.5
454.121	580
454.616	610.5
455.11	607
455.604	610.5
456.099	607
456.593	602
457.087	626
457.581	607.5
458.075	631
458.57	618
459.064	628.5
459.558	625.5
460.052	607.5
460.546	605
461.04	621.5
461.534	618
462.028	617
462.522	608.5
463.016	618
463.509	625.5
464.003	634
464.495	628
464.989	621
465.483	637
465.976	642.5
466.47	660.5
466.964	653.5
467.457	665.5
467.951	669.5
468.443	665.5
468.936	692.5
469.43	678.5
469.923	684
470.417	694
470.91	692.5
471.402	679
471.895	681.5
472.388	672.5
472.882	680.5
473.375	662.5
473.866	700
474.36	668.5
474.853	674
475.346	675.5
475.839	705
476.33	693
476.824	674.5
477.317	725.5
477.81	684
478.301	703.5
478.794	723
479.287	717
479.78	720
480.271	718.5
480.764	746.5
481.257	742
481.748	751
482.24	771
482.733	753
483.224	762.5
483.717	790.5
484.21	812
484.7	814.5
485.193	848
485.686	892
486.176	935
486.669	960.5
487.161	987.5
487.652	993
488.145	987
488.637	1036
489.128	1061
489.62	1065.5
490.11	1051
490.603	1065
491.095	1069
491.585	1085.5
492.078	1066.5
492.568	1073.5
493.06	1071
493.551	1105.5
494.043	1095
494.535	1148
495.025	1136.5
495.517	1154
496.007	1162
496.499	1177
496.989	1176.5
497.482	1122.5
497.971	1127
498.463	1063
498.953	1105
499.445	1068
499.935	1040.5
500.427	1058.5
500.917	1009
501.409	969
501.898	965.5
502.39	969.5
502.88	942
503.37	965
503.861	942.5
504.351	953
504.843	932.5
505.332	923.5
505.824	929
506.313	945
506.803	956.5
507.294	923.5
507.784	918
508.275	931
508.765	945
509.254	945
509.745	925
510.235	957.5
510.724	942
511.215	944
511.705	951
512.194	935
512.685	945.5
513.174	947
513.663	946
514.154	919.5
514.643	919
515.133	860
515.624	832.5
516.113	817
516.602	804.5
517.093	774
517.581	787.5
518.07	775
518.559	766.5
519.05	743
519.539	742.5
520.028	734.5
520.517	729.5
521.007	740.5
521.496	687.5
521.985	681.5
522.473	664.5
522.962	664
523.453	646.5
523.941	672
524.43	655
524.918	660.5
525.407	660.5
525.897	654
526.386	651
526.874	633
527.363	624
527.851	613
528.339	616
528.828	621.5
529.318	635
529.806	634.5
530.294	637
530.783	641.5
531.271	620
531.759	636
532.247	631
532.735	629
533.223	644
533.714	622.5
534.202	621.5
534.69	613.5
535.177	604.5
535.665	608
536.153	589.5
536.641	567.5
537.129	605.5
537.617	572
538.105	569.5
538.593	552.5
539.08	543
539.568	549
540.056	540
540.544	530
541.031	518.5
541.519	504.5
542.007	523.5
542.494	501
542.982	504
543.469	514
543.957	515.5
544.444	511.5
544.932	489.5
545.419	504
545.906	503
546.394	487.5
546.881	501.5
547.367	503
547.854	518
548.341	481
548.828	500
549.316	486.5
549.803	482
550.29	497
550.777	482.5
551.264	505.5
551.749	487
552.236	497.5
552.723	497.5
553.21	501.5
553.697	505
554.184	472
554.669	490
