#Acq. time (s)=	10
#Accumulations=	5
#Range=	Off
#Autofocus=	Off
#AutoExposure=	Off
#Spike filter=	Multiple accum.
#Delay time (s)=	0
#Binning=	1
#Readout mode=	Signal
#DeNoise=	Off
#ICS correction=	Off
#Dark correction=	Off
#Inst. Process=	Off
#Detector Gain=	Best Dynamic Range
#Detector ADC=	45 kHz       
#Detector temperature (°C)=	-60.1
#Instrument=	LabRAM HR Odyssey
#Detector=	Syncerity OE
#Objective=	x100_VIS
#Grating=	1800 (450-850nm)
#ND Filter=	1%
#Laser=	532nm_Edge
#Spectro (cm-¹)=	300.006
#Hole=	100.021
#Range=	Visible
#E-Cal_Neon=	0
#StageXY=	200x100mm Heavy
#StageZ=	Z motor
#X (µm)=	0
#Y (µm)=	0
#Z (µm)=	-988.9
#Spectral res.(cm-¹)=	2.2
#Project=	A
#Sample=	B
#Site=	C
#Title=	_15_44_32
#Remark=	
#Date=	05.08.2026 15:44
#Acquired=	05.08.2026 15:44:44
#AxisType[0]=Intens
#AxisUnit[0]=Cnt
#AxisType[1]=Spectr
#AxisUnit[1]=1/cm
36.5878	23
37.1156	15.6667
37.6413	27.6667
38.1691	31.6667
38.6947	30.3333
39.2203	25
39.748	25
40.2736	41
40.8012	33
41.3267	35
41.8543	33.6667
42.3797	33
42.9051	35.6667
43.4326	38.3333
43.9579	40.3333
44.4853	45
45.0106	45
45.5358	49.6667
46.0632	49.6667
46.5883	49
47.1156	47.6667
47.6407	54.3333
48.1658	43
48.693	51
49.2181	55
49.7431	53.6667
50.2702	63
50.7951	59
51.32	69
51.847	71
52.3719	79
52.8967	74.3333
53.4237	74.3333
53.9484	79.6667
54.4732	87
55	81.6667
55.5247	96.3333
56.0493	95
56.5761	104.333
57.1007	107
57.6252	116.333
58.1498	124.333
58.6764	129.667
59.2009	119.667
59.7253	142.333
60.2497	150.333
60.7762	141
61.3006	147
61.8249	163
62.3492	182.333
62.8756	185.667
63.3998	185.667
63.9241	200.333
64.4482	216.333
64.9724	222.333
65.4986	222.333
66.0227	229
66.5468	241.667
67.0708	254.333
67.5948	259
68.1188	279.667
68.6449	281.667
69.1688	298.333
69.6926	299
70.2165	314.333
70.7403	303.667
71.2641	330.333
71.7879	335.667
72.3138	331.667
72.8375	341.667
73.3611	350.333
73.8848	363.667
74.4084	366.333
74.932	376.333
75.4556	366.333
75.9791	391
76.5026	392.333
77.0282	385
77.5516	398.333
78.075	412.333
78.5984	405
79.1218	400.333
79.6451	414.333
80.1684	405.667
80.6917	429
81.2149	417
81.7381	421.667
82.2613	417.667
82.7844	432.333
83.3076	451
83.8307	435.667
84.3537	438.333
84.8767	440.333
85.3997	450.333
85.9227	426.333
86.4457	438.333
86.9686	457
87.4915	455.667
88.0143	455.667
88.5372	455.667
89.06	469
89.5827	471.667
90.1055	479
90.6282	460.333
91.1509	475.667
91.6735	483
92.1961	488.333
92.7187	506.333
93.2413	528.333
93.7617	549.667
94.2842	566.333
94.8067	549
95.3291	573.667
95.8515	537
96.3739	513.667
96.8963	545.667
97.4186	520.333
97.9409	516.333
98.4611	507.667
98.9833	513.667
99.5055	491
100.028	484.333
100.55	483
101.072	482.333
101.594	499
102.114	489
102.636	478.333
103.158	489.667
103.68	486.333
104.202	479.667
104.722	488.333
105.244	484.333
105.766	493
106.287	473
106.809	490.333
107.329	515.667
107.851	514.333
108.372	499.667
108.894	509.667
109.414	521
109.935	517.667
110.457	515
110.978	527.667
111.498	557.667
112.019	557.667
112.541	583.667
113.062	581
113.582	601.667
114.103	570.333
114.624	601.667
115.144	627
115.665	629.667
116.186	607
116.707	623
117.226	627
117.748	622.333
118.269	617
118.788	632.333
119.309	613.667
119.83	635.667
120.349	644.333
120.87	629.667
121.391	592.333
121.91	583.667
122.431	568.333
122.949	558.333
123.47	555
123.991	553
124.51	559
125.031	549.667
125.549	542.333
126.07	545
126.591	549
127.109	561.667
127.63	551
128.148	558.333
128.669	556.333
129.187	555
129.708	560.333
130.228	557
130.747	576.333
131.267	537
131.786	544.333
132.306	539
132.824	551
133.344	551
133.863	532.333
134.383	571
134.901	583.667
135.421	632.333
135.939	630.333
136.459	668.333
136.977	714.333
137.498	713
138.016	695
138.536	687
139.053	635.667
139.573	622.333
140.091	613.667
140.609	591
141.129	580.333
141.647	554.333
142.166	549.667
142.684	545.667
143.204	546.333
143.722	539
144.239	565
144.759	519
145.276	526.333
145.796	524.333
146.314	535
146.831	513
147.35	529.667
147.868	529.667
148.385	529
148.905	508.333
149.422	514.333
149.941	499.667
150.459	497.667
150.976	493
151.495	515
152.012	503.667
152.53	499.667
153.047	504.333
153.566	495
154.083	473
154.6	475
155.119	476.333
155.636	480.333
156.153	469.667
156.672	469
157.189	473
157.706	459.667
158.222	463
158.741	458.333
159.258	475
159.775	457.667
160.292	459
160.81	467.667
161.327	452.333
161.844	457
162.36	447.667
162.877	451.667
163.395	455
163.912	464.333
164.428	458.333
164.945	445
165.461	450.333
165.98	449.667
166.496	459
167.012	453.667
167.529	463
168.045	438.333
168.563	452.333
169.08	458.333
169.596	448.333
170.112	443.667
170.628	443
171.144	445
171.66	429
172.176	455.667
172.694	443.667
173.21	440.333
173.726	457
174.242	441
174.758	443
175.274	437.667
175.79	463.667
176.306	447.667
176.822	441
177.337	437
177.853	463
178.369	443
178.887	448.333
179.402	447.667
179.918	448.333
180.433	443.667
180.949	446.333
181.464	455.667
181.98	459
182.495	429.667
183.011	443
183.526	425.667
184.042	459.667
184.557	443
185.072	431.667
185.588	465.667
186.103	445.667
186.618	455
187.133	419.667
187.649	436.333
188.164	440.333
188.677	449.667
189.192	449.667
189.707	447.667
190.222	455
190.737	453.667
191.252	427
191.767	467
192.282	459
192.797	456.333
193.312	437
193.827	465
194.341	458.333
194.854	461
195.369	458.333
195.884	455.667
196.398	458.333
196.913	469.667
197.428	461
197.942	470.333
198.455	462.333
198.969	458.333
199.484	476.333
199.998	469.667
200.513	483.667
201.027	482.333
201.54	494.333
202.054	491
202.568	493.667
203.083	485.667
203.597	507
204.109	493
204.623	519
205.138	559.667
205.652	553.667
206.166	586.333
206.678	587.667
207.192	592.333
207.706	597.667
208.22	612.333
208.732	619
209.246	636.333
209.76	641
210.272	628.333
210.786	645
211.3	654.333
211.813	655
212.325	665.667
212.839	684.333
213.353	671.667
213.864	674.333
214.378	676.333
214.892	685.667
215.403	678.333
215.917	716.333
216.431	711.667
216.942	719
217.456	764.333
217.969	761.667
218.48	779.667
218.994	811
219.507	801.667
220.019	754.333
220.532	722.333
221.043	715
221.557	713.667
222.07	702.333
222.581	701.667
223.094	705
223.605	687.667
224.118	663
224.632	667
225.143	659
225.656	681
226.167	666.333
226.68	645
227.191	624.333
227.704	639.667
228.214	637.667
228.727	649.667
229.238	657.667
229.751	659.667
230.262	681
230.774	685
231.285	693
231.798	691
232.308	715.667
232.821	717
233.332	743
233.844	763
234.355	746.333
234.867	767.667
235.378	827
235.89	843.667
236.401	857.667
236.913	894.333
237.424	938.333
237.934	925.667
238.446	1008.33
238.957	1030.33
239.469	1133
239.979	1188.33
240.491	1178.33
241.001	1231.67
241.512	1266.33
242.024	1297
242.534	1385.67
243.046	1389.67
243.556	1441.67
244.066	1499.67
244.578	1572.33
245.088	1615
245.598	1756.33
246.11	1849
246.62	2048.33
247.129	2365
247.641	3041.67
248.151	4301
248.661	6869.67
249.172	11651
249.682	19915
250.192	27941.7
250.703	18608.3
251.213	6911.67
251.723	3056.33
252.232	2022.33
252.744	1658.33
253.253	1453.67
253.763	1371
254.272	1359
254.783	1359
255.293	1427
255.802	1499
256.311	1595.67
256.823	1691
257.332	1657
257.841	1629
258.35	1636.33
258.86	1643
259.371	1745
259.88	1797.67
260.389	1931.67
260.898	2031
261.407	2171
261.918	2253
262.427	2094.33
262.936	1657.67
263.445	1205
263.954	997.667
264.463	905
264.974	847.667
265.482	825.667
265.991	779.667
266.5	779
267.009	746.333
267.517	753.667
268.026	747.667
268.534	741
269.043	735.667
269.554	709.667
270.062	705
270.571	667.667
271.079	681
271.588	649.667
272.096	646.333
272.605	660.333
273.113	626.333
273.621	621
274.13	632.333
274.638	620.333
275.146	606.333
275.654	626.333
276.163	627
276.671	615.667
277.179	601.667
277.687	571.667
278.195	642.333
278.703	619.667
279.211	593.667
279.719	603
280.227	599
280.735	600.333
281.243	596.333
281.751	589
282.259	587.667
282.767	592.333
283.275	571
283.782	589
284.29	605.667
284.798	575.667
285.305	585.667
285.813	561
286.321	579
286.826	569.667
287.334	556.333
287.841	556.333
288.349	532.333
288.857	523
289.364	488.333
289.871	499.667
290.379	499.667
290.886	483.667
291.392	475
291.899	476.333
292.406	483
292.914	501.667
293.421	485.667
293.928	471
294.433	472.333
294.94	486.333
295.447	485
295.955	487
296.462	481
296.967	476.333
297.474	478.333
297.981	465
298.488	474.333
298.995	471.667
299.499	469.667
300.006	475.667
300.513	451.667
301.02	465
301.525	469
302.032	483.667
302.538	456.333
303.045	456.333
303.55	460.333
304.056	459.667
304.563	465.667
305.068	439.667
305.574	460.333
306.081	460.333
306.585	460.333
307.092	465.667
307.598	451.667
308.105	468.333
308.609	485.667
309.115	473
309.622	470.333
310.126	445
310.632	469
311.136	447.667
311.643	478.333
312.149	468.333
312.653	479.667
313.159	467.667
313.665	465
314.169	463
314.675	477
315.179	457
315.686	479
316.192	471
316.695	487.667
317.201	476.333
317.705	483
318.211	451
318.715	467.667
319.221	491
319.727	488.333
320.23	477.667
320.736	482.333
321.24	476.333
321.745	487.667
322.249	494.333
322.755	496.333
323.258	491.667
323.764	505.667
324.267	501
324.773	508.333
325.276	498.333
325.782	505
326.285	505
326.79	513
327.294	510.333
327.797	507
328.302	524.333
328.806	505
329.311	497.667
329.814	526.333
330.319	523
330.823	518.333
331.328	537
331.831	523.667
332.334	497.667
332.839	508.333
333.342	516.333
333.847	514.333
334.35	544.333
334.853	519.667
335.358	528.333
335.861	543.667
336.363	539.667
336.868	539
337.371	540.333
337.874	530.333
338.379	537.667
338.881	559
339.384	551.667
339.889	548.333
340.391	559
340.894	571
341.399	579.667
341.901	578.333
342.404	556.333
342.908	567.667
343.411	545
343.913	555
344.415	595.667
344.92	564.333
345.422	573.667
345.924	585
346.427	575.667
346.931	583
347.433	570.333
347.935	584.333
348.438	580.333
348.942	586.333
349.444	573.667
349.946	592.333
350.448	589
350.952	603.667
351.454	594.333
351.956	605.667
352.458	600.333
352.96	571.667
353.462	601
353.966	574.333
354.468	579.667
354.97	589.667
355.471	567.667
355.973	593.667
356.475	575.667
356.977	572.333
357.48	583
357.982	581
358.484	593
358.985	605.667
359.487	621
359.988	629
360.49	624.333
360.991	641
361.493	609
361.994	580.333
362.498	581
362.999	580.333
363.5	543.667
364.002	565.667
364.503	547.667
365.004	556.333
365.505	547
366.007	553
366.508	543
367.009	555.667
367.51	560.333
368.011	574.333
368.512	563.667
369.013	576.333
369.514	571
370.015	587.667
370.516	592.333
371.017	579
371.518	629
372.019	611.667
372.52	645.667
373.021	666.333
373.522	717
374.022	811.667
374.523	820.333
375.024	773.667
375.522	729.667
376.023	667.667
376.524	652.333
377.024	615
377.525	597.667
378.026	609
378.526	582.333
379.027	574.333
379.527	576.333
380.027	573
380.526	573.667
381.026	569.667
381.527	563.667
382.027	571
382.527	575
383.028	577.667
383.526	547
384.026	554.333
384.526	551.667
385.026	580.333
385.526	565.667
386.027	577.667
386.525	576.333
387.025	564.333
387.525	599
388.025	571
388.525	583
389.023	589.667
389.523	619
390.022	603.667
390.522	614.333
391.02	629
391.52	623
392.02	663
392.52	643.667
393.017	661.667
393.517	692.333
394.017	674.333
394.514	703.667
395.014	670.333
395.513	706.333
396.013	717
396.511	708.333
397.01	728.333
397.51	735
398.007	745.667
398.506	716.333
399.006	724.333
399.503	679
400.003	663
400.5	620.333
400.999	573.667
401.498	549.667
401.996	543.667
402.495	508.333
402.994	505.667
403.491	519
403.99	506.333
404.487	501
404.986	480.333
405.485	491
405.982	477
406.481	490.333
406.978	491.667
407.477	496.333
407.974	492.333
408.473	496.333
408.972	498.333
409.469	471
409.968	473.667
410.464	488.333
410.963	494.333
411.46	464.333
411.959	480.333
412.455	485
412.954	463
413.45	472.333
413.949	479.667
414.445	473
414.944	467.667
415.441	487
415.939	462.333
416.435	477.667
416.932	482.333
417.43	481.667
417.927	463
418.425	472.333
418.921	469
419.42	459
419.916	469
420.412	478.333
420.91	485.667
421.406	472.333
421.904	477
422.401	478.333
422.897	493.667
423.395	459
423.891	455.667
424.389	481
424.885	471.667
425.381	460.333
425.879	462.333
426.374	475.667
426.87	469
427.368	487
427.864	490.333
428.36	478.333
428.858	485
429.353	479
429.849	473.667
430.347	465.667
430.842	473
431.338	487
431.834	487.667
432.331	479.667
432.827	483
433.322	481.667
433.82	491.667
434.315	475
434.811	489
435.306	473
435.803	480.333
436.299	468.333
436.794	496.333
437.289	485.667
437.785	507.667
438.282	472.333
438.777	485.667
439.272	496.333
439.767	488.333
440.263	490.333
440.76	493.667
441.255	487
441.75	495
442.245	497.667
442.74	501.667
443.235	482.333
443.732	505.667
444.227	499
444.722	493.667
445.216	500.333
445.711	501.667
446.206	511
446.701	482.333
447.196	484.333
447.69	515.667
448.187	485.667
448.682	490.333
449.176	488.333
449.671	501
450.166	465.667
450.66	483
451.155	489.667
451.649	491
452.144	483
452.638	478.333
453.133	489
453.627	497.667
454.121	491.667
454.616	495
455.11	503.667
455.604	487.667
456.099	497
456.593	497.667
457.087	488.333
457.581	489.667
458.075	498.333
458.57	491.667
459.064	519
459.558	483.667
460.052	491
460.546	497
461.04	509
461.534	486.333
462.028	509.667
462.522	488.333
463.016	495
463.509	500.333
464.003	501
464.495	473
464.989	493.667
465.483	500.333
465.976	510.333
466.47	507
466.964	499.667
467.457	511
467.951	509
468.443	497
468.936	515.667
469.43	504.333
469.923	519
470.417	517
470.91	516.333
471.402	510.333
471.895	535
472.388	516.333
472.882	505.667
473.375	507
473.866	503
474.36	517.667
474.853	521
475.346	530.333
475.839	509.667
476.33	524.333
476.824	513
477.317	501
477.81	536.333
478.301	528.333
478.794	516.333
479.287	517.667
479.78	527
480.271	534.333
480.764	539.667
481.257	524.333
481.748	537.667
482.24	525.667
482.733	558.333
483.224	555
483.717	540.333
484.21	544.333
484.7	551.667
485.193	567.667
485.686	565.667
486.176	557
486.669	581
487.161	584.333
487.652	588.333
488.145	594.333
488.637	587
489.128	601.667
489.62	596.333
490.11	619.667
490.603	599
491.095	620.333
491.585	635.667
492.078	605.667
492.568	619.667
493.06	608.333
493.551	601.667
494.043	608.333
494.535	629.667
495.025	631
495.517	627.667
496.007	635
496.499	662.333
496.989	627
497.482	621.667
497.971	638.333
498.463	629
498.953	613
499.445	616.333
499.935	591
500.427	620.333
500.917	595.667
501.409	587
501.898	577.667
502.39	591
502.88	575
503.37	584.333
503.861	575
504.351	581.667
504.843	587
505.332	580.333
505.824	593.667
506.313	602.333
506.803	611.667
507.294	568.333
507.784	565
508.275	568.333
508.765	577
509.254	582.333
509.745	584.333
510.235	558.333
510.724	576.333
511.215	589.667
511.705	584.333
512.194	565.667
512.685	603.667
513.174	585.667
513.663	602.333
514.154	589.667
514.643	569
515.133	586.333
515.624	583
516.113	558.333
516.602	553
517.093	539
517.581	559
518.07	555.667
518.559	554.333
519.05	545.667
519.539	534.333
520.028	515
520.517	532.333
521.007	542.333
521.496	550.333
521.985	537
522.473	538.333
522.962	528.333
523.453	534.333
523.941	529.667
524.43	522.333
524.918	519
525.407	523.667
525.897	525.667
526.386	517.667
526.874	517.667
527.363	513
527.851	517
528.339	500.333
528.828	521.667
529.318	510.333
529.806	496.333
530.294	525
530.783	507
531.271	501
531.759	511
532.247	495.667
532.735	515
533.223	493.667
533.714	504.333
534.202	501.667
534.69	517
535.177	499.667
535.665	519.667
536.153	498.333
536.641	493.667
537.129	478.333
537.617	505.667
538.105	489.667
538.593	487.667
539.08	487
539.568	481.667
540.056	501
540.544	469.667
541.031	489.667
541.519	483
542.007	483
542.494	478.333
542.982	468.333
543.469	459
543.957	485.667
544.444	464.333
544.932	479
545.419	470.333
545.906	483
546.394	471.667
546.881	444.333
547.367	467
547.854	478.333
548.341	483
548.828	483
549.316	483.667
549.803	470.333
550.29	490.333
550.777	459.667
551.264	472.333
551.749	464.333
552.236	467
552.723	456.333
553.21	471
553.697	470.333
554.184	473
554.669	491
