#Acq. time (s)=	10
#Accumulations=	5
#Range=	Off
#Autofocus=	Off
#AutoExposure=	Off
#Spike filter=	Multiple accum.
#Delay time (s)=	0
#Binning=	1
#Readout mode=	Signal
#DeNoise=	Off
#ICS correction=	Off
#Dark correction=	Off
#Inst. Process=	Off
#Detector Gain=	Best Dynamic Range
#Detector ADC=	45 kHz       
#Detector temperature (°C)=	-60.1
#Instrument=	LabRAM HR Odyssey
#Detector=	Syncerity OE
#Objective=	x100_VIS
#Grating=	1800 (450-850nm)
#ND Filter=	1%
#Laser=	532nm_Edge
#Spectro (cm-¹)=	300.006
#Hole=	100.021
#Range=	Visible
#E-Cal_Neon=	0
#StageXY=	200x100mm Heavy
#StageZ=	Z motor
#X (µm)=	0
#Y (µm)=	0
#Z (µm)=	-988.9
#Spectral res.(cm-¹)=	2.2
#Full time(s)=	59
#AC=	Calibrated 2026-08-05 15:16
#Project=	A
#Sample=	B
#Site=	C
#Title=	_15_42_54
#Remark=	
#Date=	05.08.2026 15:43
#Acquired=	05.08.2026 15:43:07
#AxisType[0]=Intens
#AxisUnit[0]=Cnt
#AxisType[1]=Spectr
#AxisUnit[1]=1/cm
36.5878	24.5
37.1156	21.5
37.6413	28.5
38.1691	34.5
38.6947	33
39.2203	31
39.748	33.5
40.2736	37.5
40.8012	36
41.3267	36.5
41.8543	42
42.3797	45
42.9051	44
43.4326	51.5
43.9579	51
44.4853	58
45.0106	53.5
45.5358	56
46.0632	55
46.5883	53
47.1156	65
47.6407	68
48.1658	66.5
48.693	64
49.2181	75.5
49.7431	82
50.2702	71
50.7951	72.5
51.32	83.5
51.847	92
52.3719	91
52.8967	87.5
53.4237	88
53.9484	98.5
54.4732	102
55	115
55.5247	113
56.0493	114
56.5761	126
57.1007	121.5
57.6252	136
58.1498	139.5
58.6764	149
59.2009	154.5
59.7253	160.5
60.2497	168
60.7762	172
61.3006	194
61.8249	189
62.3492	209
62.8756	205
63.3998	226
63.9241	221
64.4482	248.5
64.9724	247.5
65.4986	263
66.0227	267
66.5468	285
67.0708	292
67.5948	304
68.1188	308
68.6449	325.5
69.1688	337
69.6926	337
70.2165	343
70.7403	357
71.2641	375.5
71.7879	370
72.3138	380
72.8375	406
73.3611	390
73.8848	407
74.4084	404
74.932	436.5
75.4556	414
75.9791	455
76.5026	422
77.0282	453.5
77.5516	439
78.075	452
78.5984	458
79.1218	452.5
79.6451	464.5
80.1684	464
80.6917	469
81.2149	466.5
81.7381	483
82.2613	478.5
82.7844	478.5
83.3076	499
83.8307	494
84.3537	495.5
84.8767	495
85.3997	488
85.9227	490.5
86.4457	493.5
86.9686	510.5
87.4915	510.5
88.0143	498
88.5372	507
89.06	501.5
89.5827	524.5
90.1055	530.5
90.6282	519
91.1509	534.5
91.6735	539
92.1961	549.5
92.7187	558
93.2413	577
93.7617	608.5
94.2842	613.5
94.8067	618.5
95.3291	613.5
95.8515	601
96.3739	576
96.8963	597
97.4186	570.5
97.9409	570
98.4611	551
98.9833	560.5
99.5055	558
100.028	541
100.55	541.5
101.072	535
101.594	536
102.114	539
102.636	547
103.158	530.5
103.68	545
104.202	542.5
104.722	554.5
105.244	524.5
105.766	549
106.287	544
106.809	554.5
107.329	536.5
107.851	546
108.372	561
108.894	560
109.414	567
109.935	566
110.457	554
110.978	583
111.498	576
112.019	595.5
112.541	609
113.062	630
113.582	632.5
114.103	655.5
114.624	655
115.144	640.5
115.665	670
116.186	668.5
116.707	665.5
117.226	657
117.748	687.5
118.269	682.5
118.788	690
119.309	679
119.83	695
120.349	692
120.87	676.5
121.391	656
121.91	637
122.431	620.5
122.949	604.5
123.47	592
123.991	613.5
124.51	609.5
125.031	580.5
125.549	581
126.07	599.5
126.591	612
127.109	597
127.63	602.5
128.148	590.5
128.669	590
129.187	580
129.708	613
130.228	595
130.747	598
131.267	587
131.786	590
132.306	582.5
132.824	583
133.344	595
133.863	590.5
134.383	611.5
134.901	627
135.421	652.5
135.939	682.5
136.459	697.5
136.977	728
137.498	744
138.016	743.5
138.536	728.5
139.053	698.5
139.573	676
140.091	645.5
140.609	634
141.129	605.5
141.647	613.5
142.166	588
142.684	591
143.204	586.5
143.722	595.5
144.239	582
144.759	588.5
145.276	586.5
145.796	557
146.314	579
146.831	555
147.35	570
147.868	561.5
148.385	556
148.905	561
149.422	542.5
149.941	538.5
150.459	526
150.976	525.5
151.495	542
152.012	536.5
152.53	531
153.047	548
153.566	531.5
154.083	529.5
154.6	520
155.119	523
155.636	515
156.153	506.5
156.672	520
157.189	512.5
157.706	521.5
158.222	497
158.741	521
159.258	494.5
159.775	499
160.292	510
160.81	493
161.327	513.5
161.844	507
162.36	504
162.877	500.5
163.395	503
163.912	495.5
164.428	509
164.945	503
165.461	493.5
165.98	486
166.496	514.5
167.012	508.5
167.529	482.5
168.045	483.5
168.563	503.5
169.08	498
169.596	504.5
170.112	488.5
170.628	510
171.144	512.5
171.66	491
172.176	495.5
172.694	502.5
173.21	508.5
173.726	479.5
174.242	486.5
174.758	487
175.274	503.5
175.79	496
176.306	488.5
176.822	493
177.337	484
177.853	482.5
178.369	485
178.887	489
179.402	474.5
179.918	481.5
180.433	493
180.949	488.5
181.464	497
181.98	475.5
182.495	507
183.011	501
183.526	478
184.042	488.5
184.557	490
185.072	502.5
185.588	476.5
186.103	485
186.618	493
187.133	499
187.649	486
188.164	511
188.677	489.5
189.192	505
189.707	489
190.222	496
190.737	477.5
191.252	511
191.767	483.5
192.282	505.5
192.797	508
193.312	504
193.827	514.5
194.341	497
194.854	518.5
195.369	515
195.884	510.5
196.398	503
196.913	519
197.428	509
197.942	512.5
198.455	499
198.969	523
199.484	523
199.998	508
200.513	511
201.027	539
201.54	537.5
202.054	532
202.568	521
203.083	529.5
203.597	528
204.109	523
204.623	564
205.138	593
205.652	612
206.166	631
206.678	621.5
207.192	648.5
207.706	650
208.22	642
208.732	657.5
209.246	666
209.76	663.5
210.272	669.5
210.786	687.5
211.3	687
211.813	666
212.325	679
212.839	703
213.353	729.5
213.864	703.5
214.378	721
214.892	719.5
215.403	746.5
215.917	758
216.431	731.5
216.942	773
217.456	776
217.969	791.5
218.48	810
218.994	841
219.507	801
220.019	798
220.532	760.5
221.043	758
221.557	747.5
222.07	762
222.581	714
223.094	735
223.605	706
224.118	710
224.632	706
225.143	709.5
225.656	716.5
226.167	715
226.68	698.5
227.191	702
227.704	672
228.214	669.5
228.727	683.5
229.238	684
229.751	710.5
230.262	707
230.774	714.5
231.285	719.5
231.798	761.5
232.308	726.5
232.821	762.5
233.332	789.5
233.844	742
234.355	818
234.867	802.5
235.378	852.5
235.89	843.5
236.401	883.5
236.913	925.5
237.424	943.5
237.934	966
238.446	1031
238.957	1051
239.469	1121.5
239.979	1166
240.491	1221.5
241.001	1255
241.512	1272
242.024	1291
242.534	1338
243.046	1383.5
243.556	1439.5
244.066	1499.5
244.578	1586.5
245.088	1632
245.598	1753
246.11	1826.5
246.62	1970
247.129	2278.5
247.641	2836.5
248.151	3920
248.661	6240
249.172	11017.5
249.682	19846
250.192	26981.5
250.703	18294
251.213	7190
251.723	3204
252.232	2144.5
252.744	1706.5
253.253	1479.5
253.763	1416.5
254.272	1373
254.783	1401.5
255.293	1434
255.802	1518
256.311	1649.5
256.823	1726
257.332	1701
257.841	1614.5
258.35	1670
258.86	1729
259.371	1790.5
259.88	1918
260.389	2024.5
260.898	2169
261.407	2240
261.918	2185
262.427	1863.5
262.936	1423
263.445	1115
263.954	984
264.463	899
264.974	865
265.482	856
265.991	819
266.5	823
267.009	806.5
267.517	801.5
268.026	765.5
268.534	771
269.043	760
269.554	751.5
270.062	707
270.571	707.5
271.079	732.5
271.588	705
272.096	687
272.605	677
273.113	668.5
273.621	681
274.13	665
274.638	662.5
275.146	664.5
275.654	671.5
276.163	669.5
276.671	660.5
277.179	650.5
277.687	648
278.195	652
278.703	652.5
279.211	656.5
279.719	642.5
280.227	639
280.735	649
281.243	647.5
281.751	618.5
282.259	615
282.767	639.5
283.275	619
283.782	633.5
284.29	620.5
284.798	620
285.305	644
285.813	614.5
286.321	615
286.826	599
287.334	601
287.841	612
288.349	582.5
288.857	571
289.364	536.5
289.871	542
290.379	529.5
290.886	539.5
291.392	512
291.899	539
292.406	532
292.914	535
293.421	529
293.928	521.5
294.433	529
294.94	536.5
295.447	519
295.955	534.5
296.462	509
296.967	517
297.474	540
297.981	521.5
298.488	534.5
298.995	517
299.499	524
300.006	518.5
300.513	502.5
301.02	528
301.525	515
302.032	509
302.538	512
303.045	517.5
303.55	517.5
304.056	524.5
304.563	505.5
305.068	511
305.574	527
306.081	507
306.585	517
307.092	515.5
307.598	505
308.105	507.5
308.609	517.5
309.115	522.5
309.622	518
310.126	522.5
310.632	510.5
311.136	509
311.643	519.5
312.149	500
312.653	529
313.159	525.5
313.665	528
314.169	506
314.675	524
315.179	499
315.686	540.5
316.192	518.5
316.695	518.5
317.201	528.5
317.705	523
318.211	514.5
318.715	535
319.221	528
319.727	534.5
320.23	509.5
320.736	537.5
321.24	534.5
321.745	515
322.249	546.5
322.755	542.5
323.258	554
323.764	545
324.267	556
324.773	548
325.276	537.5
325.782	560
326.285	542
326.79	562
327.294	549
327.797	560
328.302	560.5
328.806	565.5
329.311	566
329.814	563.5
330.319	570.5
330.823	560
331.328	574
331.831	569
332.334	579
332.839	557.5
333.342	594.5
333.847	557.5
334.35	563.5
334.853	575
335.358	561
335.861	577
336.363	583.5
336.868	561
337.371	589
337.874	607.5
338.379	597
338.881	596.5
339.384	600.5
339.889	609.5
340.391	602
340.894	625.5
341.399	615
341.901	607.5
342.404	621.5
342.908	602.5
343.411	615
343.913	618
344.415	619.5
344.92	617
345.422	619
345.924	618
346.427	617
346.931	627
347.433	613
347.935	623
348.438	639
348.942	631
349.444	635
349.946	627.5
350.448	642.5
350.952	653
351.454	657.5
351.956	652
352.458	640.5
352.96	660.5
353.462	643.5
353.966	619.5
354.468	619.5
354.97	624
355.471	620.5
355.973	627.5
356.475	618.5
356.977	620.5
357.48	627.5
357.982	606
358.484	651.5
358.985	655
359.487	655
359.988	670
360.49	666
360.991	660.5
361.493	662
361.994	646.5
362.498	638.5
362.999	609
363.5	604
364.002	602
364.503	610.5
365.004	617
365.505	599
366.007	609
366.508	582
367.009	611
367.51	615
368.011	611
368.512	623
369.013	620
369.514	617
370.015	634
370.516	633
371.017	648.5
371.518	654
372.019	685
372.52	692
373.021	689
373.522	769
374.022	837
374.523	882.5
375.024	837.5
375.522	741.5
376.023	711
376.524	677
377.024	662.5
377.525	624
378.026	614
378.526	622
379.027	609.5
379.527	613.5
380.027	627
380.526	615
381.026	617.5
381.527	607
382.027	613
382.527	598.5
383.028	614
383.526	606.5
384.026	612
384.526	612
385.026	611
385.526	628.5
386.027	615.5
386.525	620.5
387.025	624
387.525	620
388.025	632.5
388.525	626
389.023	647
389.523	645.5
390.022	648
390.522	655.5
391.02	675.5
391.52	651.5
392.02	685
392.52	689.5
393.017	722.5
393.517	693
394.017	715
394.514	744
395.014	734
395.513	752
396.013	726.5
396.511	766.5
397.01	782.5
397.51	771
398.007	768
398.506	754
399.006	769.5
399.503	723
400.003	699
400.5	640
400.999	614
401.498	586.5
401.996	594.5
402.495	578
402.994	560
403.491	547
403.99	562.5
404.487	554
404.986	558
405.485	538
405.982	567
406.481	539
406.978	541.5
407.477	534
407.974	534
408.473	545.5
408.972	525
409.469	539.5
409.968	546
410.464	521
410.963	535
411.46	522
411.959	556.5
412.455	524.5
412.954	549.5
413.45	523.5
413.949	508
414.445	535
414.944	546
415.441	536
415.939	535
416.435	525
416.932	539.5
417.43	533.5
417.927	529.5
418.425	538
418.921	533
419.42	520.5
419.916	544
420.412	535.5
420.91	524.5
421.406	532
421.904	546
422.401	518
422.897	531.5
423.395	536
423.891	523
424.389	531
424.885	526.5
425.381	530
425.879	534.5
426.374	530
426.87	534.5
427.368	536
427.864	533
428.36	536
428.858	525
429.353	516.5
429.849	535
430.347	539.5
430.842	540
431.338	544
431.834	527
432.331	547.5
432.827	527
433.322	539.5
433.82	537.5
434.315	545
434.811	539.5
435.306	534
435.803	543
436.299	535
436.794	544.5
437.289	541.5
437.785	550
438.282	537.5
438.777	544.5
439.272	554
439.767	554.5
440.263	559.5
440.76	546.5
441.255	547
441.75	557.5
442.245	557.5
442.74	543.5
443.235	557
443.732	565
444.227	556.5
444.722	537.5
445.216	552
445.711	543.5
446.206	542
446.701	540.5
447.196	544.5
447.69	564
448.187	561
448.682	539
449.176	540.5
449.671	551.5
450.166	556.5
450.66	512
451.155	553
451.649	566
452.144	556
452.638	548
453.133	540
453.627	557.5
454.121	561
454.616	541
455.11	549.5
455.604	548.5
456.099	541
456.593	560
457.087	549
457.581	547.5
458.075	556
458.57	552.5
459.064	543.5
459.558	551.5
460.052	549
460.546	552.5
461.04	572.5
461.534	552
462.028	541
462.522	556.5
463.016	555
463.509	548
464.003	553
464.495	565.5
464.989	564
465.483	553.5
465.976	555
466.47	565.5
466.964	552.5
467.457	565
467.951	572.5
468.443	557
468.936	576
469.43	553
469.923	580.5
470.417	560.5
470.91	567
471.402	576
471.895	570
472.388	560.5
472.882	560
473.375	585
473.866	561
474.36	574
474.853	563.5
475.346	575.5
475.839	575.5
476.33	579
476.824	578.5
477.317	580
477.81	572.5
478.301	583.5
478.794	580
479.287	591.5
479.78	581.5
480.271	591.5
480.764	599.5
481.257	598
481.748	586.5
482.24	608
482.733	587
483.224	573.5
483.717	602
484.21	601
484.7	587
485.193	581
485.686	623.5
486.176	620.5
486.669	623
487.161	639
487.652	654
488.145	638
488.637	648.5
489.128	666.5
489.62	656.5
490.11	660
490.603	659.5
491.095	667.5
491.585	664.5
492.078	655
492.568	644.5
493.06	644.5
493.551	663.5
494.043	672
494.535	675
495.025	688.5
495.517	690
496.007	700
496.499	683
496.989	690.5
497.482	689
497.971	670
498.463	655.5
498.953	666
499.445	625.5
499.935	661.5
500.427	647
500.917	631
501.409	642.5
501.898	637
502.39	642.5
502.88	619
503.37	632.5
503.861	641.5
504.351	662
504.843	626
505.332	628.5
505.824	635
506.313	621
506.803	635
507.294	650
507.784	638.5
508.275	650
508.765	628
509.254	636
509.745	616
510.235	644
510.724	615
511.215	640.5
511.705	634.5
512.194	633
512.685	639
513.174	649
513.663	616
514.154	640
514.643	632
515.133	646.5
515.624	632.5
516.113	611
516.602	617.5
517.093	616
517.581	611
518.07	620
518.559	605.5
519.05	616
519.539	584
520.028	594.5
520.517	594
521.007	603.5
521.496	593
521.985	597.5
522.473	576
522.962	586
523.453	606
523.941	608.5
524.43	597
524.918	594.5
525.407	571
525.897	563
526.386	568.5
526.874	590.5
527.363	577
527.851	573
528.339	565
528.828	557.5
529.318	567.5
529.806	571
530.294	571
530.783	570
531.271	573.5
531.759	575.5
532.247	577
532.735	558
533.223	562
533.714	564.5
534.202	560
534.69	545
535.177	567.5
535.665	571
536.153	573.5
536.641	570.5
537.129	556
537.617	559
538.105	554
538.593	557
539.08	551
539.568	537.5
540.056	560
540.544	560
541.031	558
541.519	533
542.007	544
542.494	550
542.982	545.5
543.469	559
543.957	551
544.444	547.5
544.932	534.5
545.419	550
545.906	534
546.394	538.5
546.881	536.5
547.367	545.5
547.854	532
548.341	519
548.828	536.5
549.316	516
549.803	538
550.29	522
550.777	535.5
551.264	537.5
551.749	553
552.236	539.5
552.723	541
553.21	533
553.697	537.5
554.184	545
554.669	527
